Wind_speed[m/s] Pitch[deg.] RPM
4.0 2.751 6.000
5.0 1.966 6.000
6.0 0.896 6.000
7.0 0.000 6.000
8.0 0.000 6.426
9.0 0.000 7.229
10.0 0.000 8.032
11.0 0.000 8.836
12.0 4.502 9.600
13.0 7.266 9.600
14.0 9.292 9.600
15.0 10.958 9.600
16.0 12.499 9.600
17.0 13.896 9.600
18.0 15.200 9.600
19.0 16.432 9.600
20.0 17.618 9.600
21.0 18.758 9.600
22.0 19.860 9.600
23.0 20.927 9.600
24.0 21.963 9.600
25.0 22.975 9.600
